# === DATA DESCRIPTION FILE ======================================================
#
# CAUTION - Investigational device.
# Limited by Federal Law to investigational use.
#
# Dataset name: E:\\Export\Unname^^_SO2_3D_FFE_SENSE_7_1
#
# CLINICAL TRYOUT             Research image export tool     V4.2
#
# === GENERAL INFORMATION ========================================================
#
.    Patient name                       :   Unname
.    Examination name                   :   IRM crane+perfusion
.    Protocol name                      :   SO2_3D_FFE SENSE
.    Examination date/time              :   2014.11.29 / 09:21:24
.    Series Type                        :   Image   MRSERIES
.    Acquisition nr                     :   7
.    Reconstruction nr                  :   1
.    Scan Duration [sec]                :   320
.    Max. number of cardiac phases      :   1
.    Max. number of echoes              :   9
.    Max. number of slices/locations    :   75
.    Max. number of dynamics            :   1
.    Max. number of mixes               :   1
.    Patient position                   :   Head First Supine
.    Preparation direction              :   Right-Left
.    Technique                          :   FFE
.    Scan resolution  (x, y)            :   224  224
.    Scan mode                          :   3D
.    Repetition time [ms]               :   66.526  
.    FOV (ap,fh,rl) [mm]                :   224.000  60.000  184.000
.    Water Fat shift [pixels]           :   2.001
.    Angulation midslice(ap,fh,rl)[degr]:   -1.839  -0.334  -10.306
.    Off Centre midslice(ap,fh,rl) [mm] :   7.659  24.665  -1.239
.    Flow compensation <0=no 1=yes> ?   :   1
.    Presaturation     <0=no 1=yes> ?   :   0
.    Phase encoding velocity [cm/sec]   :   0.000000  0.000000  0.000000
.    MTC               <0=no 1=yes> ?   :   0
.    SPIR              <0=no 1=yes> ?   :   0
.    EPI factor        <0,1=no EPI>     :   1
.    Dynamic scan      <0=no 1=yes> ?   :   0
.    Diffusion         <0=no 1=yes> ?   :   0
.    Diffusion echo time [ms]           :   0.0000
.    Max. number of diffusion values    :   1
.    Max. number of gradient orients    :   1
.    Number of label types   <0=no ASL> :   0
#
# === PIXEL VALUES =============================================================
#  PV = pixel value in REC file, FP = floating point value, DV = displayed value on console
#  RS = rescale slope,           RI = rescale intercept,    SS = scale slope
#  DV = PV * RS + RI             FP = DV / (RS * SS)
#
# === IMAGE INFORMATION DEFINITION =============================================
#  The rest of this file contains ONE line per image, this line contains the following information:
#
#  slice number                             (integer)
#  echo number                              (integer)
#  dynamic scan number                      (integer)
#  cardiac phase number                     (integer)
#  image_type_mr                            (integer)
#  scanning sequence                        (integer)
#  index in REC file (in images)            (integer)
#  image pixel size (in bits)               (integer)
#  scan percentage                          (integer)
#  recon resolution (x y)                   (2*integer)
#  rescale intercept                        (float)
#  rescale slope                            (float)
#  scale slope                              (float)
#  window center                            (integer)
#  window width                             (integer)
#  image angulation (ap,fh,rl in degrees )  (3*float)
#  image offcentre (ap,fh,rl in mm )        (3*float)
#  slice thickness (in mm )                 (float)
#  slice gap (in mm )                       (float)
#  image_display_orientation                (integer)
#  slice orientation ( TRA/SAG/COR )        (integer)
#  fmri_status_indication                   (integer)
#  image_type_ed_es  (end diast/end syst)   (integer)
#  pixel spacing (x,y) (in mm)              (2*float)
#  echo_time                                (float)
#  dyn_scan_begin_time                      (float)
#  trigger_time                             (float)
#  diffusion_b_factor                       (float)
#  number of averages                       (integer)
#  image_flip_angle (in degrees)            (float)
#  cardiac frequency   (bpm)                (integer)
#  minimum RR-interval (in ms)              (integer)
#  maximum RR-interval (in ms)              (integer)
#  TURBO factor  <0=no turbo>               (integer)
#  Inversion delay (in ms)                  (float)
#  diffusion b value number    (imagekey!)  (integer)
#  gradient orientation number (imagekey!)  (integer)
#  contrast type                            (string)
#  diffusion anisotropy type                (string)
#  diffusion (ap, fh, rl)                   (3*float)
#  label type (ASL)            (imagekey!)  (integer)
#
# === IMAGE INFORMATION ==========================================================
#  sl ec  dyn ph ty    idx pix scan% rec size                (re)scale              window        angulation              offcentre        thick   gap   info      spacing     echo     dtime   ttime    diff  avg  flip    freq   RR-int  turbo delay b grad cont anis         diffusion       L.ty

  1   1    1  1 0 2     0  16    78  224  224     0.00000   7.01636 7.03408e-005  1310  2276  -1.84  -0.33 -10.31    2.37   -4.44   -0.29  0.800  0.000 0 1 0 2  1.000  1.000   5.70    0.00     0.00    0.00   1   23.00     0    0    0     9   0.0  1   1    7    0   0.000    0.000    0.000  1
  1   2    1  1 0 2     1  16    78  224  224     0.00000   7.01636 7.03408e-005  1323  2300  -1.84  -0.33 -10.31    2.37   -4.44   -0.29  0.800  0.000 0 1 0 2  1.000  1.000  12.70    0.00     0.00    0.00   1   23.00     0    0    0     9   0.0  1   1    7    0   0.000    0.000    0.000  1
  1   3    1  1 0 2     2  16    78  224  224     0.00000   7.01636 7.03408e-005  1009  1754  -1.84  -0.33 -10.31    2.37   -4.44   -0.29  0.800  0.000 0 1 0 2  1.000  1.000  19.70    0.00     0.00    0.00   1   23.00     0    0    0     9   0.0  1   1    7    0   0.000    0.000    0.000  1
  1   4    1  1 0 2     3  16    78  224  224     0.00000   7.01636 7.03408e-005   831  1445  -1.84  -0.33 -10.31    2.37   -4.44   -0.29  0.800  0.000 0 1 0 2  1.000  1.000  26.70    0.00     0.00    0.00   1   23.00     0    0    0     9   0.0  1   1    7    0   0.000    0.000    0.000  1
  1   5    1  1 0 2     4  16    78  224  224     0.00000   7.01636 7.03408e-005   776  1350  -1.84  -0.33 -10.31    2.37   -4.44   -0.29  0.800  0.000 0 1 0 2  1.000  1.000  33.70    0.00     0.00    0.00   1   23.00     0    0    0     9   0.0  1   1   11    0   0.000    0.000    0.000  1
  1   6    1  1 0 2     5  16    78  224  224     0.00000   7.01636 7.03408e-005   771  1340  -1.84  -0.33 -10.31    2.37   -4.44   -0.29  0.800  0.000 0 1 0 2  1.000  1.000  40.70    0.00     0.00    0.00   1   23.00     0    0    0     9   0.0  1   1   11    0   0.000    0.000    0.000  1
  1   7    1  1 0 2     6  16    78  224  224     0.00000   7.01636 7.03408e-005   724  1258  -1.84  -0.33 -10.31    2.37   -4.44   -0.29  0.800  0.000 0 1 0 2  1.000  1.000  47.70    0.00     0.00    0.00   1   23.00     0    0    0     9   0.0  1   1   11    0   0.000    0.000    0.000  1
  1   8    1  1 0 2     7  16    78  224  224     0.00000   7.01636 7.03408e-005   667  1159  -1.84  -0.33 -10.31    2.37   -4.44   -0.29  0.800  0.000 0 1 0 2  1.000  1.000  54.70    0.00     0.00    0.00   1   23.00     0    0    0     9   0.0  1   1   11    0   0.000    0.000    0.000  1
  1   9    1  1 0 2     8  16    78  224  224     0.00000   7.01636 7.03408e-005   647  1124  -1.84  -0.33 -10.31    2.37   -4.44   -0.29  0.800  0.000 0 1 0 2  1.000  1.000  61.70    0.00     0.00    0.00   1   23.00     0    0    0     9   0.0  1   1   11    0   0.000    0.000    0.000  1
  2   1    1  1 0 2     9  16    78  224  224     0.00000   7.01636 7.03408e-005  1249  2172  -1.84  -0.33 -10.31    2.51   -3.66   -0.31  0.800  0.000 0 1 0 2  1.000  1.000   5.70    0.00     0.00    0.00   1   23.00     0    0    0     9   0.0  1   1    7    0   0.000    0.000    0.000  1
  2   2    1  1 0 2    10  16    78  224  224     0.00000   7.01636 7.03408e-005  1256  2183  -1.84  -0.33 -10.31    2.51   -3.66   -0.31  0.800  0.000 0 1 0 2  1.000  1.000  12.70    0.00     0.00    0.00   1   23.00     0    0    0     9   0.0  1   1    7    0   0.000    0.000    0.000  1
  2   3    1  1 0 2    11  16    78  224  224     0.00000   7.01636 7.03408e-005  1039  1806  -1.84  -0.33 -10.31    2.51   -3.66   -0.31  0.800  0.000 0 1 0 2  1.000  1.000  19.70    0.00     0.00    0.00   1   23.00     0    0    0     9   0.0  1   1    7    0   0.000    0.000    0.000  1
  2   4    1  1 0 2    12  16    78  224  224     0.00000   7.01636 7.03408e-005   869  1511  -1.84  -0.33 -10.31    2.51   -3.66   -0.31  0.800  0.000 0 1 0 2  1.000  1.000  26.70    0.00     0.00    0.00   1   23.00     0    0    0     9   0.0  1   1    7    0   0.000    0.000    0.000  1
  2   5    1  1 0 2    13  16    78  224  224     0.00000   7.01636 7.03408e-005   790  1373  -1.84  -0.33 -10.31    2.51   -3.66   -0.31  0.800  0.000 0 1 0 2  1.000  1.000  33.70    0.00     0.00    0.00   1   23.00     0    0    0     9   0.0  1   1   11    0   0.000    0.000    0.000  1
  2   6    1  1 0 2    14  16    78  224  224     0.00000   7.01636 7.03408e-005   784  1363  -1.84  -0.33 -10.31    2.51   -3.66   -0.31  0.800  0.000 0 1 0 2  1.000  1.000  40.70    0.00     0.00    0.00   1   23.00     0    0    0     9   0.0  1   1   11    0   0.000    0.000    0.000  1
  2   7    1  1 0 2    15  16    78  224  224     0.00000   7.01636 7.03408e-005   764  1327  -1.84  -0.33 -10.31    2.51   -3.66   -0.31  0.800  0.000 0 1 0 2  1.000  1.000  47.70    0.00     0.00    0.00   1   23.00     0    0    0     9   0.0  1   1   11    0   0.000    0.000    0.000  1
  2   8    1  1 0 2    16  16    78  224  224     0.00000   7.01636 7.03408e-005   691  1201  -1.84  -0.33 -10.31    2.51   -3.66   -0.31  0.800  0.000 0 1 0 2  1.000  1.000  54.70    0.00     0.00    0.00   1   23.00     0    0    0     9   0.0  1   1   11    0   0.000    0.000    0.000  1
  2   9    1  1 0 2    17  16    78  224  224     0.00000   7.01636 7.03408e-005   660  1147  -1.84  -0.33 -10.31    2.51   -3.66   -0.31  0.800  0.000 0 1 0 2  1.000  1.000  61.70    0.00     0.00    0.00   1   23.00     0    0    0     9   0.0  1   1   11    0   0.000    0.000    0.000  1
  3   1    1  1 0 2    18  16    78  224  224     0.00000   7.01636 7.03408e-005  1358  2361  -1.84  -0.33 -10.31    2.65   -2.87   -0.34  0.800  0.000 0 1 0 2  1.000  1.000   5.70    0.00     0.00    0.00   1   23.00     0    0    0     9   0.0  1   1    7    0   0.000    0.000    0.000  1
  3   2    1  1 0 2    19  16    78  224  224     0.00000   7.01636 7.03408e-005  1235  2146  -1.84  -0.33 -10.31    2.65   -2.87   -0.34  0.800  0.000 0 1 0 2  1.000  1.000  12.70    0.00     0.00    0.00   1   23.00     0    0    0     9   0.0  1   1    7    0   0.000    0.000    0.000  1
  3   3    1  1 0 2    20  16    78  224  224     0.00000   7.01636 7.03408e-005  1111  1931  -1.84  -0.33 -10.31    2.65   -2.87   -0.34  0.800  0.000 0 1 0 2  1.000  1.000  19.70    0.00     0.00    0.00   1   23.00     0    0    0     9   0.0  1   1    7    0   0.000    0.000    0.000  1
  3   4    1  1 0 2    21  16    78  224  224     0.00000   7.01636 7.03408e-005   958  1665  -1.84  -0.33 -10.31    2.65   -2.87   -0.34  0.800  0.000 0 1 0 2  1.000  1.000  26.70    0.00     0.00    0.00   1   23.00     0    0    0     9   0.0  1   1    7    0   0.000    0.000    0.000  1
  3   5    1  1 0 2    22  16    78  224  224     0.00000   7.01636 7.03408e-005   857  1490  -1.84  -0.33 -10.31    2.65   -2.87   -0.34  0.800  0.000 0 1 0 2  1.000  1.000  33.70    0.00     0.00    0.00   1   23.00     0    0    0     9   0.0  1   1   11    0   0.000    0.000    0.000  1
  3   6    1  1 0 2    23  16    78  224  224     0.00000   7.01636 7.03408e-005   790  1373  -1.84  -0.33 -10.31    2.65   -2.87   -0.34  0.800  0.000 0 1 0 2  1.000  1.000  40.70    0.00     0.00    0.00   1   23.00     0    0    0     9   0.0  1   1   11    0   0.000    0.000    0.000  1
  3   7    1  1 0 2    24  16    78  224  224     0.00000   7.01636 7.03408e-005   773  1345  -1.84  -0.33 -10.31    2.65   -2.87   -0.34  0.800  0.000 0 1 0 2  1.000  1.000  47.70    0.00     0.00    0.00   1   23.00     0    0    0     9   0.0  1   1   11    0   0.000    0.000    0.000  1
  3   8    1  1 0 2    25  16    78  224  224     0.00000   7.01636 7.03408e-005   727  1264  -1.84  -0.33 -10.31    2.65   -2.87   -0.34  0.800  0.000 0 1 0 2  1.000  1.000  54.70    0.00     0.00    0.00   1   23.00     0    0    0     9   0.0  1   1   11    0   0.000    0.000    0.000  1
  3   9    1  1 0 2    26  16    78  224  224     0.00000   7.01636 7.03408e-005   692  1203  -1.84  -0.33 -10.31    2.65   -2.87   -0.34  0.800  0.000 0 1 0 2  1.000  1.000  61.70    0.00     0.00    0.00   1   23.00     0    0    0     9   0.0  1   1   11    0   0.000    0.000    0.000  1
  4   1    1  1 0 2    27  16    78  224  224     0.00000   7.01636 7.03408e-005  1594  2770  -1.84  -0.33 -10.31    2.80   -2.08   -0.37  0.800  0.000 0 1 0 2  1.000  1.000   5.70    0.00     0.00    0.00   1   23.00     0    0    0     9   0.0  1   1    7    0   0.000    0.000    0.000  1
  4   2    1  1 0 2    28  16    78  224  224     0.00000   7.01636 7.03408e-005  1487  2584  -1.84  -0.33 -10.31    2.80   -2.08   -0.37  0.800  0.000 0 1 0 2  1.000  1.000  12.70    0.00     0.00    0.00   1   23.00     0    0    0     9   0.0  1   1    7    0   0.000    0.000    0.000  1
  4   3    1  1 0 2    29  16    78  224  224     0.00000   7.01636 7.03408e-005  1357  2359  -1.84  -0.33 -10.31    2.80   -2.08   -0.37  0.800  0.000 0 1 0 2  1.000  1.000  19.70    0.00     0.00    0.00   1   23.00     0    0    0     9   0.0  1   1    7    0   0.000    0.000    0.000  1
  4   4    1  1 0 2    30  16    78  224  224     0.00000   7.01636 7.03408e-005  1053  1830  -1.84  -0.33 -10.31    2.80   -2.08   -0.37  0.800  0.000 0 1 0 2  1.000  1.000  26.70    0.00     0.00    0.00   1   23.00     0    0    0     9   0.0  1   1    7    0   0.000    0.000    0.000  1
  4   5    1  1 0 2    31  16    78  224  224     0.00000   7.01636 7.03408e-005   898  1561  -1.84  -0.33 -10.31    2.80   -2.08   -0.37  0.800  0.000 0 1 0 2  1.000  1.000  33.70    0.00     0.00    0.00   1   23.00     0    0    0     9   0.0  1   1   11    0   0.000    0.000    0.000  1
  4   6    1  1 0 2    32  16    78  224  224     0.00000   7.01636 7.03408e-005   836  1454  -1.84  -0.33 -10.31    2.80   -2.08   -0.37  0.800  0.000 0 1 0 2  1.000  1.000  40.70    0.00     0.00    0.00   1   23.00     0    0    0     9   0.0  1   1   11    0   0.000    0.000    0.000  1
  4   7    1  1 0 2    33  16    78  224  224     0.00000   7.01636 7.03408e-005   785  1364  -1.84  -0.33 -10.31    2.80   -2.08   -0.37  0.800  0.000 0 1 0 2  1.000  1.000  47.70    0.00     0.00    0.00   1   23.00     0    0    0     9   0.0  1   1   11    0   0.000    0.000    0.000  1
  4   8    1  1 0 2    34  16    78  224  224     0.00000   7.01636 7.03408e-005   735  1278  -1.84  -0.33 -10.31    2.80   -2.08   -0.37  0.800  0.000 0 1 0 2  1.000  1.000  54.70    0.00     0.00    0.00   1   23.00     0    0    0     9   0.0  1   1   11    0   0.000    0.000    0.000  1
  4   9    1  1 0 2    35  16    78  224  224     0.00000   7.01636 7.03408e-005   695  1208  -1.84  -0.33 -10.31    2.80   -2.08   -0.37  0.800  0.000 0 1 0 2  1.000  1.000  61.70    0.00     0.00    0.00   1   23.00     0    0    0     9   0.0  1   1   11    0   0.000    0.000    0.000  1
  5   1    1  1 0 2    36  16    78  224  224     0.00000   7.01636 7.03408e-005  1646  2861  -1.84  -0.33 -10.31    2.94   -1.30   -0.39  0.800  0.000 0 1 0 2  1.000  1.000   5.70    0.00     0.00    0.00   1   23.00     0    0    0     9   0.0  1   1    7    0   0.000    0.000    0.000  1
  5   2    1  1 0 2    37  16    78  224  224     0.00000   7.01636 7.03408e-005  1555  2704  -1.84  -0.33 -10.31    2.94   -1.30   -0.39  0.800  0.000 0 1 0 2  1.000  1.000  12.70    0.00     0.00    0.00   1   23.00     0    0    0     9   0.0  1   1    7    0   0.000    0.000    0.000  1
  5   3    1  1 0 2    38  16    78  224  224     0.00000   7.01636 7.03408e-005  1254  2180  -1.84  -0.33 -10.31    2.94   -1.30   -0.39  0.800  0.000 0 1 0 2  1.000  1.000  19.70    0.00     0.00    0.00   1   23.00     0    0    0     9   0.0  1   1    7    0   0.000    0.000    0.000  1
  5   4    1  1 0 2    39  16    78  224  224     0.00000   7.01636 7.03408e-005  1049  1823  -1.84  -0.33 -10.31    2.94   -1.30   -0.39  0.800  0.000 0 1 0 2  1.000  1.000  26.70    0.00     0.00    0.00   1   23.00     0    0    0     9   0.0  1   1    7    0   0.000    0.000    0.000  1
  5   5    1  1 0 2    40  16    78  224  224     0.00000   7.01636 7.03408e-005   847  1473  -1.84  -0.33 -10.31    2.94   -1.30   -0.39  0.800  0.000 0 1 0 2  1.000  1.000  33.70    0.00     0.00    0.00   1   23.00     0    0    0     9   0.0  1   1   11    0   0.000    0.000    0.000  1
  5   6    1  1 0 2    41  16    78  224  224     0.00000   7.01636 7.03408e-005   794  1380  -1.84  -0.33 -10.31    2.94   -1.30   -0.39  0.800  0.000 0 1 0 2  1.000  1.000  40.70    0.00     0.00    0.00   1   23.00     0    0    0     9   0.0  1   1   11    0   0.000    0.000    0.000  1
  5   7    1  1 0 2    42  16    78  224  224     0.00000   7.01636 7.03408e-005   771  1340  -1.84  -0.33 -10.31    2.94   -1.30   -0.39  0.800  0.000 0 1 0 2  1.000  1.000  47.70    0.00     0.00    0.00   1   23.00     0    0    0     9   0.0  1   1   11    0   0.000    0.000    0.000  1
  5   8    1  1 0 2    43  16    78  224  224     0.00000   7.01636 7.03408e-005   722  1254  -1.84  -0.33 -10.31    2.94   -1.30   -0.39  0.800  0.000 0 1 0 2  1.000  1.000  54.70    0.00     0.00    0.00   1   23.00     0    0    0     9   0.0  1   1   11    0   0.000    0.000    0.000  1
  5   9    1  1 0 2    44  16    78  224  224     0.00000   7.01636 7.03408e-005   680  1182  -1.84  -0.33 -10.31    2.94   -1.30   -0.39  0.800  0.000 0 1 0 2  1.000  1.000  61.70    0.00     0.00    0.00   1   23.00     0    0    0     9   0.0  1   1   11    0   0.000    0.000    0.000  1
  6   1    1  1 0 2    45  16    78  224  224     0.00000   7.01636 7.03408e-005  1701  2957  -1.84  -0.33 -10.31    3.08   -0.51   -0.42  0.800  0.000 0 1 0 2  1.000  1.000   5.70    0.00     0.00    0.00   1   23.00     0    0    0     9   0.0  1   1    7    0   0.000    0.000    0.000  1
  6   2    1  1 0 2    46  16    78  224  224     0.00000   7.01636 7.03408e-005  1569  2727  -1.84  -0.33 -10.31    3.08   -0.51   -0.42  0.800  0.000 0 1 0 2  1.000  1.000  12.70    0.00     0.00    0.00   1   23.00     0    0    0     9   0.0  1   1    7    0   0.000    0.000    0.000  1
  6   3    1  1 0 2    47  16    78  224  224     0.00000   7.01636 7.03408e-005  1368  2378  -1.84  -0.33 -10.31    3.08   -0.51   -0.42  0.800  0.000 0 1 0 2  1.000  1.000  19.70    0.00     0.00    0.00   1   23.00     0    0    0     9   0.0  1   1    7    0   0.000    0.000    0.000  1
  6   4    1  1 0 2    48  16    78  224  224     0.00000   7.01636 7.03408e-005  1126  1957  -1.84  -0.33 -10.31    3.08   -0.51   -0.42  0.800  0.000 0 1 0 2  1.000  1.000  26.70    0.00     0.00    0.00   1   23.00     0    0    0     9   0.0  1   1    7    0   0.000    0.000    0.000  1
  6   5    1  1 0 2    49  16    78  224  224     0.00000   7.01636 7.03408e-005   910  1581  -1.84  -0.33 -10.31    3.08   -0.51   -0.42  0.800  0.000 0 1 0 2  1.000  1.000  33.70    0.00     0.00    0.00   1   23.00     0    0    0     9   0.0  1   1   11    0   0.000    0.000    0.000  1
  6   6    1  1 0 2    50  16    78  224  224     0.00000   7.01636 7.03408e-005   823  1431  -1.84  -0.33 -10.31    3.08   -0.51   -0.42  0.800  0.000 0 1 0 2  1.000  1.000  40.70    0.00     0.00    0.00   1   23.00     0    0    0     9   0.0  1   1   11    0   0.000    0.000    0.000  1
  6   7    1  1 0 2    51  16    78  224  224     0.00000   7.01636 7.03408e-005   780  1357  -1.84  -0.33 -10.31    3.08   -0.51   -0.42  0.800  0.000 0 1 0 2  1.000  1.000  47.70    0.00     0.00    0.00   1   23.00     0    0    0     9   0.0  1   1   11    0   0.000    0.000    0.000  1
  6   8    1  1 0 2    52  16    78  224  224     0.00000   7.01636 7.03408e-005   752  1307  -1.84  -0.33 -10.31    3.08   -0.51   -0.42  0.800  0.000 0 1 0 2  1.000  1.000  54.70    0.00     0.00    0.00   1   23.00     0    0    0     9   0.0  1   1   11    0   0.000    0.000    0.000  1
  6   9    1  1 0 2    53  16    78  224  224     0.00000   7.01636 7.03408e-005   690  1200  -1.84  -0.33 -10.31    3.08   -0.51   -0.42  0.800  0.000 0 1 0 2  1.000  1.000  61.70    0.00     0.00    0.00   1   23.00     0    0    0     9   0.0  1   1   11    0   0.000    0.000    0.000  1
  7   1    1  1 0 2    54  16    78  224  224     0.00000   7.01636 7.03408e-005  1971  3426  -1.84  -0.33 -10.31    3.22    0.28   -0.44  0.800  0.000 0 1 0 2  1.000  1.000   5.70    0.00     0.00    0.00   1   23.00     0    0    0     9   0.0  1   1    7    0   0.000    0.000    0.000  1
  7   2    1  1 0 2    55  16    78  224  224     0.00000   7.01636 7.03408e-005  1717  2984  -1.84  -0.33 -10.31    3.22    0.28   -0.44  0.800  0.000 0 1 0 2  1.000  1.000  12.70    0.00     0.00    0.00   1   23.00     0    0    0     9   0.0  1   1    7    0   0.000    0.000    0.000  1
  7   3    1  1 0 2    56  16    78  224  224     0.00000   7.01636 7.03408e-005  1526  2653  -1.84  -0.33 -10.31    3.22    0.28   -0.44  0.800  0.000 0 1 0 2  1.000  1.000  19.70    0.00     0.00    0.00   1   23.00     0    0    0     9   0.0  1   1    7    0   0.000    0.000    0.000  1
  7   4    1  1 0 2    57  16    78  224  224     0.00000   7.01636 7.03408e-005  1302  2263  -1.84  -0.33 -10.31    3.22    0.28   -0.44  0.800  0.000 0 1 0 2  1.000  1.000  26.70    0.00     0.00    0.00   1   23.00     0    0    0     9   0.0  1   1    7    0   0.000    0.000    0.000  1
  7   5    1  1 0 2    58  16    78  224  224     0.00000   7.01636 7.03408e-005   975  1695  -1.84  -0.33 -10.31    3.22    0.28   -0.44  0.800  0.000 0 1 0 2  1.000  1.000  33.70    0.00     0.00    0.00   1   23.00     0    0    0     9   0.0  1   1   11    0   0.000    0.000    0.000  1
  7   6    1  1 0 2    59  16    78  224  224     0.00000   7.01636 7.03408e-005   880  1530  -1.84  -0.33 -10.31    3.22    0.28   -0.44  0.800  0.000 0 1 0 2  1.000  1.000  40.70    0.00     0.00    0.00   1   23.00     0    0    0     9   0.0  1   1   11    0   0.000    0.000    0.000  1
  7   7    1  1 0 2    60  16    78  224  224     0.00000   7.01636 7.03408e-005   809  1407  -1.84  -0.33 -10.31    3.22    0.28   -0.44  0.800  0.000 0 1 0 2  1.000  1.000  47.70    0.00     0.00    0.00   1   23.00     0    0    0     9   0.0  1   1   11    0   0.000    0.000    0.000  1
  7   8    1  1 0 2    61  16    78  224  224     0.00000   7.01636 7.03408e-005   762  1325  -1.84  -0.33 -10.31    3.22    0.28   -0.44  0.800  0.000 0 1 0 2  1.000  1.000  54.70    0.00     0.00    0.00   1   23.00     0    0    0     9   0.0  1   1   11    0   0.000    0.000    0.000  1
  7   9    1  1 0 2    62  16    78  224  224     0.00000   7.01636 7.03408e-005   694  1206  -1.84  -0.33 -10.31    3.22    0.28   -0.44  0.800  0.000 0 1 0 2  1.000  1.000  61.70    0.00     0.00    0.00   1   23.00     0    0    0     9   0.0  1   1   11    0   0.000    0.000    0.000  1
  8   1    1  1 0 2    63  16    78  224  224     0.00000   7.01636 7.03408e-005  1894  3293  -1.84  -0.33 -10.31    3.37    1.06   -0.47  0.800  0.000 0 1 0 2  1.000  1.000   5.70    0.00     0.00    0.00   1   23.00     0    0    0     9   0.0  1   1    7    0   0.000    0.000    0.000  1
  8   2    1  1 0 2    64  16    78  224  224     0.00000   7.01636 7.03408e-005  1744  3031  -1.84  -0.33 -10.31    3.37    1.06   -0.47  0.800  0.000 0 1 0 2  1.000  1.000  12.70    0.00     0.00    0.00   1   23.00     0    0    0     9   0.0  1   1    7    0   0.000    0.000    0.000  1
  8   3    1  1 0 2    65  16    78  224  224     0.00000   7.01636 7.03408e-005  1528  2656  -1.84  -0.33 -10.31    3.37    1.06   -0.47  0.800  0.000 0 1 0 2  1.000  1.000  19.70    0.00     0.00    0.00   1   23.00     0    0    0     9   0.0  1   1    7    0   0.000    0.000    0.000  1
  8   4    1  1 0 2    66  16    78  224  224     0.00000   7.01636 7.03408e-005  1275  2217  -1.84  -0.33 -10.31    3.37    1.06   -0.47  0.800  0.000 0 1 0 2  1.000  1.000  26.70    0.00     0.00    0.00   1   23.00     0    0    0     9   0.0  1   1    7    0   0.000    0.000    0.000  1
  8   5    1  1 0 2    67  16    78  224  224     0.00000   7.01636 7.03408e-005  1026  1784  -1.84  -0.33 -10.31    3.37    1.06   -0.47  0.800  0.000 0 1 0 2  1.000  1.000  33.70    0.00     0.00    0.00   1   23.00     0    0    0     9   0.0  1   1   11    0   0.000    0.000    0.000  1
  8   6    1  1 0 2    68  16    78  224  224     0.00000   7.01636 7.03408e-005   950  1652  -1.84  -0.33 -10.31    3.37    1.06   -0.47  0.800  0.000 0 1 0 2  1.000  1.000  40.70    0.00     0.00    0.00   1   23.00     0    0    0     9   0.0  1   1   11    0   0.000    0.000    0.000  1
  8   7    1  1 0 2    69  16    78  224  224     0.00000   7.01636 7.03408e-005   884  1537  -1.84  -0.33 -10.31    3.37    1.06   -0.47  0.800  0.000 0 1 0 2  1.000  1.000  47.70    0.00     0.00    0.00   1   23.00     0    0    0     9   0.0  1   1   11    0   0.000    0.000    0.000  1
  8   8    1  1 0 2    70  16    78  224  224     0.00000   7.01636 7.03408e-005   785  1365  -1.84  -0.33 -10.31    3.37    1.06   -0.47  0.800  0.000 0 1 0 2  1.000  1.000  54.70    0.00     0.00    0.00   1   23.00     0    0    0     9   0.0  1   1   11    0   0.000    0.000    0.000  1
  8   9    1  1 0 2    71  16    78  224  224     0.00000   7.01636 7.03408e-005   746  1297  -1.84  -0.33 -10.31    3.37    1.06   -0.47  0.800  0.000 0 1 0 2  1.000  1.000  61.70    0.00     0.00    0.00   1   23.00     0    0    0     9   0.0  1   1   11    0   0.000    0.000    0.000  1
  9   1    1  1 0 2    72  16    78  224  224     0.00000   7.01636 7.03408e-005  1803  3134  -1.84  -0.33 -10.31    3.51    1.85   -0.49  0.800  0.000 0 1 0 2  1.000  1.000   5.70    0.00     0.00    0.00   1   23.00     0    0    0     9   0.0  1   1    7    0   0.000    0.000    0.000  1
  9   2    1  1 0 2    73  16    78  224  224     0.00000   7.01636 7.03408e-005  1640  2851  -1.84  -0.33 -10.31    3.51    1.85   -0.49  0.800  0.000 0 1 0 2  1.000  1.000  12.70    0.00     0.00    0.00   1   23.00     0    0    0     9   0.0  1   1    7    0   0.000    0.000    0.000  1
  9   3    1  1 0 2    74  16    78  224  224     0.00000   7.01636 7.03408e-005  1487  2584  -1.84  -0.33 -10.31    3.51    1.85   -0.49  0.800  0.000 0 1 0 2  1.000  1.000  19.70    0.00     0.00    0.00   1   23.00     0    0    0     9   0.0  1   1    7    0   0.000    0.000    0.000  1
  9   4    1  1 0 2    75  16    78  224  224     0.00000   7.01636 7.03408e-005  1176  2044  -1.84  -0.33 -10.31    3.51    1.85   -0.49  0.800  0.000 0 1 0 2  1.000  1.000  26.70    0.00     0.00    0.00   1   23.00     0    0    0     9   0.0  1   1    7    0   0.000    0.000    0.000  1
  9   5    1  1 0 2    76  16    78  224  224     0.00000   7.01636 7.03408e-005  1012  1759  -1.84  -0.33 -10.31    3.51    1.85   -0.49  0.800  0.000 0 1 0 2  1.000  1.000  33.70    0.00     0.00    0.00   1   23.00     0    0    0     9   0.0  1   1   11    0   0.000    0.000    0.000  1
  9   6    1  1 0 2    77  16    78  224  224     0.00000   7.01636 7.03408e-005   916  1592  -1.84  -0.33 -10.31    3.51    1.85   -0.49  0.800  0.000 0 1 0 2  1.000  1.000  40.70    0.00     0.00    0.00   1   23.00     0    0    0     9   0.0  1   1   11    0   0.000    0.000    0.000  1
  9   7    1  1 0 2    78  16    78  224  224     0.00000   7.01636 7.03408e-005   867  1508  -1.84  -0.33 -10.31    3.51    1.85   -0.49  0.800  0.000 0 1 0 2  1.000  1.000  47.70    0.00     0.00    0.00   1   23.00     0    0    0     9   0.0  1   1   11    0   0.000    0.000    0.000  1
  9   8    1  1 0 2    79  16    78  224  224     0.00000   7.01636 7.03408e-005   848  1473  -1.84  -0.33 -10.31    3.51    1.85   -0.49  0.800  0.000 0 1 0 2  1.000  1.000  54.70    0.00     0.00    0.00   1   23.00     0    0    0     9   0.0  1   1   11    0   0.000    0.000    0.000  1
  9   9    1  1 0 2    80  16    78  224  224     0.00000   7.01636 7.03408e-005   804  1397  -1.84  -0.33 -10.31    3.51    1.85   -0.49  0.800  0.000 0 1 0 2  1.000  1.000  61.70    0.00     0.00    0.00   1   23.00     0    0    0     9   0.0  1   1   11    0   0.000    0.000    0.000  1
 10   1    1  1 0 2    81  16    78  224  224     0.00000   7.01636 7.03408e-005  1782  3097  -1.84  -0.33 -10.31    3.65    2.64   -0.52  0.800  0.000 0 1 0 2  1.000  1.000   5.70    0.00     0.00    0.00   1   23.00     0    0    0     9   0.0  1   1    7    0   0.000    0.000    0.000  1
 10   2    1  1 0 2    82  16    78  224  224     0.00000   7.01636 7.03408e-005  1604  2789  -1.84  -0.33 -10.31    3.65    2.64   -0.52  0.800  0.000 0 1 0 2  1.000  1.000  12.70    0.00     0.00    0.00   1   23.00     0    0    0     9   0.0  1   1    7    0   0.000    0.000    0.000  1
 10   3    1  1 0 2    83  16    78  224  224     0.00000   7.01636 7.03408e-005  1484  2580  -1.84  -0.33 -10.31    3.65    2.64   -0.52  0.800  0.000 0 1 0 2  1.000  1.000  19.70    0.00     0.00    0.00   1   23.00     0    0    0     9   0.0  1   1    7    0   0.000    0.000    0.000  1
